# NDIV =     2000 dE=      0.01500750
#    energy (ev)           dos 
    -20.00000000       0.00000000
    -19.98499250       0.00000000
    -19.96998499       0.00000000
    -19.95497749       0.00000000
    -19.93996998       0.00000000
    -19.92496248       0.00000000
    -19.90995498       0.00000000
    -19.89494747       0.00000000
    -19.87993997       0.00000000
    -19.86493247       0.00000000
    -19.84992496       0.00000000
    -19.83491746       0.00000000
    -19.81990995       0.00000001
    -19.80490245       0.00000002
    -19.78989495       0.00000005
    -19.77488744       0.00000014
    -19.75987994       0.00000035
    -19.74487244       0.00000087
    -19.72986493       0.00000207
    -19.71485743       0.00000479
    -19.69984992       0.00001068
    -19.68484242       0.00002303
    -19.66983492       0.00004804
    -19.65482741       0.00009694
    -19.63981991       0.00018924
    -19.62481241       0.00035747
    -19.60980490       0.00065354
    -19.59479740       0.00115659
    -19.57978989       0.00198190
    -19.56478239       0.00328924
    -19.54977489       0.00528879
    -19.53476738       0.00824170
    -19.51975988       0.01245234
    -19.50475238       0.01824960
    -19.48974487       0.02595658
    -19.47473737       0.03584970
    -19.45972986       0.04811220
    -19.44472236       0.06278890
    -19.42971486       0.07975152
    -19.41470735       0.09868312
    -19.39969985       0.11908784
    -19.38469235       0.14032759
    -19.36968484       0.16168165
    -19.35467734       0.18242002
    -19.33966983       0.20187831
    -19.32466233       0.21952142
    -19.30965483       0.23498607
    -19.29464732       0.24809682
    -19.27963982       0.25885608
    -19.26463232       0.26741329
    -19.24962481       0.27402163
    -19.23461731       0.27899136
    -19.21960980       0.28264745
    -19.20460230       0.28529686
    -19.18959480       0.28720732
    -19.17458729       0.28859735
    -19.15957979       0.28963515
    -19.14457229       0.29044342
    -19.12956478       0.29110734
    -19.11455728       0.29168330
    -19.09954977       0.29220696
    -19.08454227       0.29269994
    -19.06953477       0.29317476
    -19.05452726       0.29363837
    -19.03951976       0.29409451
    -19.02451226       0.29454508
    -19.00950475       0.29499101
    -18.99449725       0.29543274
    -18.97948974       0.29587048
    -18.96448224       0.29630431
    -18.94947474       0.29673425
    -18.93446723       0.29716032
    -18.91945973       0.29758250
    -18.90445223       0.29800077
    -18.88944472       0.29841512
    -18.87443722       0.29882553
    -18.85942971       0.29923198
    -18.84442221       0.29963446
    -18.82941471       0.30003295
    -18.81440720       0.30042746
    -18.79939970       0.30081796
    -18.78439220       0.30120447
    -18.76938469       0.30158698
    -18.75437719       0.30196549
    -18.73936968       0.30234000
    -18.72436218       0.30271051
    -18.70935468       0.30307704
    -18.69434717       0.30343957
    -18.67933967       0.30379811
    -18.66433217       0.30415266
    -18.64932466       0.30450324
    -18.63431716       0.30484985
    -18.61930965       0.30519249
    -18.60430215       0.30553118
    -18.58929465       0.30586592
    -18.57428714       0.30619671
    -18.55927964       0.30652357
    -18.54427214       0.30684649
    -18.52926463       0.30716549
    -18.51425713       0.30748056
    -18.49924962       0.30779172
    -18.48424212       0.30809897
    -18.46923462       0.30840234
    -18.45422711       0.30870183
    -18.43921961       0.30899745
    -18.42421211       0.30928923
    -18.40920460       0.30957718
    -18.39419710       0.30986133
    -18.37918959       0.31014168
    -18.36418209       0.31041827
    -18.34917459       0.31069110
    -18.33416708       0.31096020
    -18.31915958       0.31122560
    -18.30415208       0.31148732
    -18.28914457       0.31174539
    -18.27413707       0.31199980
    -18.25912956       0.31225059
    -18.24412206       0.31249776
    -18.22911456       0.31274134
    -18.21410705       0.31298136
    -18.19909955       0.31321783
    -18.18409205       0.31345076
    -18.16908454       0.31368014
    -18.15407704       0.31390601
    -18.13906953       0.31412842
    -18.12406203       0.31434743
    -18.10905453       0.31456308
    -18.09404702       0.31477538
    -18.07903952       0.31498431
    -18.06403202       0.31518989
    -18.04902451       0.31539218
    -18.03401701       0.31559127
    -18.01900950       0.31578724
    -18.00400200       0.31598007
    -17.98899450       0.31616966
    -17.97398699       0.31635596
    -17.95897949       0.31653903
    -17.94397199       0.31671901
    -17.92896448       0.31689607
    -17.91395698       0.31707026
    -17.89894947       0.31724147
    -17.88394197       0.31740953
    -17.86893447       0.31757437
    -17.85392696       0.31773614
    -17.83891946       0.31789518
    -17.82391196       0.31805172
    -17.80890445       0.31820577
    -17.79389695       0.31835703
    -17.77888944       0.31850517
    -17.76388194       0.31865008
    -17.74887444       0.31879207
    -17.73386693       0.31893169
    -17.71885943       0.31906933
    -17.70385193       0.31920491
    -17.68884442       0.31933786
    -17.67383692       0.31946758
    -17.65882941       0.31959388
    -17.64382191       0.31971725
    -17.62881441       0.31983864
    -17.61380690       0.31995876
    -17.59879940       0.32007756
    -17.58379190       0.32019418
    -17.56878439       0.32030749
    -17.55377689       0.32041696
    -17.53876938       0.32052316
    -17.52376188       0.32062752
    -17.50875438       0.32073140
    -17.49374687       0.32083510
    -17.47873937       0.32093753
    -17.46373187       0.32103683
    -17.44872436       0.32113164
    -17.43371686       0.32122213
    -17.41870935       0.32131013
    -17.40370185       0.32139804
    -17.38869435       0.32148725
    -17.37368684       0.32157708
    -17.35867934       0.32166500
    -17.34367184       0.32174819
    -17.32866433       0.32182544
    -17.31365683       0.32189817
    -17.29864932       0.32196979
    -17.28364182       0.32204369
    -17.26863432       0.32212100
    -17.25362681       0.32219966
    -17.23861931       0.32227544
    -17.22361181       0.32234446
    -17.20860430       0.32240576
    -17.19359680       0.32246221
    -17.17858929       0.32251913
    -17.16358179       0.32258112
    -17.14857429       0.32264920
    -17.13356678       0.32271981
    -17.11855928       0.32278662
    -17.10355178       0.32284416
    -17.08854427       0.32289127
    -17.07353677       0.32293218
    -17.05852926       0.32297449
    -17.04352176       0.32302492
    -17.02851426       0.32308527
    -17.01350675       0.32315092
    -16.99849925       0.32321308
    -16.98349175       0.32326353
    -16.96848424       0.32329949
    -16.95347674       0.32332565
    -16.93846923       0.32335210
    -16.92346173       0.32338905
    -16.90845423       0.32344104
    -16.89344672       0.32350402
    -16.87843922       0.32356693
    -16.86343172       0.32361741
    -16.84842421       0.32364848
    -16.83341671       0.32366283
    -16.81840920       0.32367203
    -16.80340170       0.32369089
    -16.78839420       0.32372973
    -16.77338669       0.32378855
    -16.75837919       0.32385632
    -16.74337169       0.32391614
    -16.72836418       0.32395374
    -16.71335668       0.32396518
    -16.69834917       0.32395955
    -16.68334167       0.32395512
    -16.66833417       0.32397053
    -16.65332666       0.32401523
    -16.63831916       0.32408416
    -16.62331166       0.32415944
    -16.60830415       0.32421860
    -16.59329665       0.32424566
    -16.57828914       0.32423940
    -16.56328164       0.32421491
    -16.54827414       0.32419702
    -16.53326663       0.32420873
    -16.51825913       0.32425986
    -16.50325163       0.32434159
    -16.48824412       0.32442971
    -16.47323662       0.32449547
    -16.45822911       0.32451908
    -16.44322161       0.32449956
    -16.42821411       0.32445626
    -16.41320660       0.32442073
    -16.39819910       0.32442263
    -16.38319160       0.32447580
    -16.36818409       0.32457113
    -16.35317659       0.32467960
    -16.33816908       0.32476471
    -16.32316158       0.32479875
    -16.30815408       0.32477584
    -16.29314657       0.32471559
    -16.27813907       0.32465547
    -16.26313157       0.32463486
    -16.24812406       0.32467760
    -16.23311656       0.32478079
    -16.21810905       0.32491489
    -16.20310155       0.32503557
    -16.18809405       0.32510242
    -16.17308654       0.32509673
    -16.15807904       0.32503050
    -16.14307154       0.32494251
    -16.12806403       0.32488283
    -16.11305653       0.32489192
    -16.09804902       0.32498309
    -16.08304152       0.32513582
    -16.06803402       0.32530309
    -16.05302651       0.32543007
    -16.03801901       0.32547670
    -16.02301151       0.32543483
    -16.00800400       0.32533284
    -15.99299650       0.32522530
    -15.97798899       0.32517158
    -15.96298149       0.32521187
    -15.94797399       0.32535020
    -15.93296648       0.32555157
    -15.91795898       0.32575469
    -15.90295148       0.32589563
    -15.88794397       0.32593325
    -15.87293647       0.32586626
    -15.85792896       0.32573510
    -15.84292146       0.32560739
    -15.82791396       0.32555231
    -15.81290645       0.32561372
    -15.79789895       0.32579231
    -15.78289145       0.32604400
    -15.76788394       0.32629557
    -15.75287644       0.32647187
    -15.73786893       0.32652449
    -15.72286143       0.32645099
    -15.70785393       0.32629724
    -15.69284642       0.32614146
    -15.67783892       0.32606583
    -15.66283142       0.32612584
    -15.64782391       0.32632887
    -15.63281641       0.32663016
    -15.61780890       0.32694794
    -15.60280140       0.32719252
    -15.58779390       0.32729906
    -15.57278639       0.32725190
    -15.55777889       0.32709161
    -15.54277139       0.32690181
    -15.52776388       0.32678002
    -15.51275638       0.32680299
    -15.49774887       0.32699869
    -15.48274137       0.32733506
    -15.46773387       0.32773005
    -15.45272636       0.32807950
    -15.43771886       0.32829339
    -15.42271136       0.32832792
    -15.40770385       0.32820190
    -15.39269635       0.32799173
    -15.37768884       0.32780615
    -15.36268134       0.32774937
    -15.34767384       0.32788497
    -15.33266633       0.32821314
    -15.31765883       0.32866924
    -15.30265133       0.32914450
    -15.28764382       0.32952217
    -15.27263632       0.32971703
    -15.25762881       0.32970492
    -15.24262131       0.32953221
    -15.22761381       0.32930168
    -15.21260630       0.32913933
    -15.19759880       0.32915287
    -15.18259130       0.32939562
    -15.16758379       0.32984786
    -15.15257629       0.33042191
    -15.13756878       0.33098978
    -15.12256128       0.33142435
    -15.10755378       0.33164102
    -15.09254627       0.33162624
    -15.07753877       0.33144323
    -15.06253127       0.33121308
    -15.04752376       0.33107671
    -15.03251626       0.33114995
    -15.01750875       0.33148604
    -15.00250125       0.33205758
    -14.98749375       0.33276401
    -14.97248624       0.33346241
    -14.95747874       0.33401215
    -14.94247124       0.33431943
    -14.92746373       0.33436764
    -14.91245623       0.33422401
    -14.89744872       0.33402010
    -14.88244122       0.33391194
    -14.86743372       0.33403200
    -14.85242621       0.33444784
    -14.83741871       0.33514034
    -14.82241121       0.33600837
    -14.80740370       0.33689888
    -14.79239620       0.33765331
    -14.77738869       0.33815618
    -14.76238119       0.33837124
    -14.74737369       0.33835377
    -14.73236618       0.33823541
    -14.71735868       0.33818571
    -14.70235118       0.33836182
    -14.68734367       0.33886135
    -14.67233617       0.33969260
    -14.65732866       0.34077114
    -14.64232116       0.34194409
    -14.62731366       0.34303519
    -14.61230615       0.34389733
    -14.59729865       0.34445707
    -14.58229115       0.34473793
    -14.56728364       0.34485526
    -14.55227614       0.34498413
    -14.53726863       0.34530940
    -14.52226113       0.34597255
    -14.50725363       0.34703071
    -14.49224612       0.34843995
    -14.47723862       0.35006796
    -14.46223112       0.35173254
    -14.44722361       0.35325515
    -14.43221611       0.35451415
    -14.41720860       0.35548237
    -14.40220110       0.35623823
    -14.38719360       0.35694694
    -14.37218609       0.35781716
    -14.35717859       0.35904525
    -14.34217109       0.36076347
    -14.32716358       0.36300666
    -14.31215608       0.36570766
    -14.29714857       0.36872296
    -14.28214107       0.37188185
    -14.26713357       0.37504556
    -14.25212606       0.37815951
    -14.23711856       0.38128374
    -14.22211106       0.38459145
    -14.20710355       0.38833456
    -14.19209605       0.39278307
    -14.17708854       0.39815207
    -14.16208104       0.40453358
    -14.14707354       0.41184888
    -14.13206603       0.41983279
    -14.11705853       0.42805329
    -14.10205103       0.43596264
    -14.08704352       0.44296886
    -14.07203602       0.44851311
    -14.05702851       0.45213753
    -14.04202101       0.45353184
    -14.02701351       0.45255164
    -14.01200600       0.44920897
    -13.99699850       0.44364117
    -13.98199100       0.43606893
    -13.96698349       0.42675550
    -13.95197599       0.41597719
    -13.93696848       0.40401053
    -13.92196098       0.39113532
    -13.90695348       0.37764719
    -13.89194597       0.36386954
    -13.87693847       0.35015490
    -13.86193097       0.33686900
    -13.84692346       0.32435708
    -13.83191596       0.31289878
    -13.81690845       0.30266311
    -13.80190095       0.29367723
    -13.78689345       0.28582011
    -13.77188594       0.27884667
    -13.75687844       0.27243932
    -13.74187094       0.26627638
    -13.72686343       0.26010126
    -13.71185593       0.25377567
    -13.69684842       0.24730323
    -13.68184092       0.24081751
    -13.66683342       0.23453720
    -13.65182591       0.22869965
    -13.63681841       0.22348949
    -13.62181091       0.21898061
    -13.60680340       0.21510714
    -13.59179590       0.21167208
    -13.57678839       0.20839293
    -13.56178089       0.20497385
    -13.54677339       0.20118573
    -13.53176588       0.19693189
    -13.51675838       0.19227924
    -13.50175088       0.18744342
    -13.48674337       0.18272915
    -13.47173587       0.17844107
    -13.45672836       0.17479078
    -13.44172086       0.17182881
    -13.42671336       0.16942381
    -13.41170585       0.16729768
    -13.39669835       0.16510719
    -13.38169085       0.16254751
    -13.36668334       0.15944530
    -13.35167584       0.15581170
    -13.33666833       0.15183847
    -13.32166083       0.14783913
    -13.30665333       0.14415469
    -13.29164582       0.14105533
    -13.27663832       0.13867020
    -13.26163082       0.13696821
    -13.24662331       0.13579585
    -13.23161581       0.13495964
    -13.21660830       0.13432670
    -13.20160080       0.13391123
    -13.18659330       0.13391913
    -13.17158579       0.13473577
    -13.15657829       0.13685837
    -13.14157079       0.14079067
    -13.12656328       0.14692708
    -13.11155578       0.15545638
    -13.09654827       0.16630799
    -13.08154077       0.17915263
    -13.06653327       0.19345414
    -13.05152576       0.20855718
    -13.03651826       0.22378803
    -13.02151076       0.23854473
    -13.00650325       0.25235857
    -12.99149575       0.26491851
    -12.97648824       0.27606095
    -12.96148074       0.28573582
    -12.94647324       0.29396444
    -12.93146573       0.30080360
    -12.91645823       0.30632495
    -12.90145073       0.31061172
    -12.88644322       0.31376760
    -12.87143572       0.31592886
    -12.85642821       0.31727002
    -12.84142071       0.31799735
    -12.82641321       0.31832933
    -12.81140570       0.31846908
    -12.79639820       0.31857673
    -12.78139070       0.31875057
    -12.76638319       0.31902237
    -12.75137569       0.31936832
    -12.73636818       0.31973158
    -12.72136068       0.32004938
    -12.70635318       0.32027665
    -12.69134567       0.32039982
    -12.67633817       0.32043820
    -12.66133067       0.32043417
    -12.64632316       0.32043692
    -12.63131566       0.32048604
    -12.61630815       0.32060026
    -12.60130065       0.32077484
    -12.58629315       0.32098732
    -12.57128564       0.32120888
    -12.55627814       0.32141667
    -12.54127064       0.32160293
    -12.52626313       0.32177835
    -12.51125563       0.32196987
    -12.49624812       0.32221506
    -12.48124062       0.32255647
    -12.46623312       0.32303839
    -12.45122561       0.32370705
    -12.43621811       0.32461324
    -12.42121061       0.32581541
    -12.40620310       0.32738149
    -12.39119560       0.32938826
    -12.37618809       0.33191845
    -12.36118059       0.33505628
    -12.34617309       0.33888187
    -12.33116558       0.34346455
    -12.31615808       0.34885467
    -12.30115058       0.35507357
    -12.28614307       0.36210203
    -12.27113557       0.36986858
    -12.25612806       0.37823995
    -12.24112056       0.38701591
    -12.22611306       0.39593096
    -12.21110555       0.40466442
    -12.19609805       0.41285937
    -12.18109055       0.42014987
    -12.16608304       0.42619408
    -12.15107554       0.43070938
    -12.13606803       0.43350435
    -12.12106053       0.43450172
    -12.10605303       0.43374762
    -12.09104552       0.43140436
    -12.07603802       0.42772765
    -12.06103052       0.42303223
    -12.04602301       0.41765274
    -12.03101551       0.41190702
    -12.01600800       0.40606826
    -12.00100050       0.40034909
    -11.98599300       0.39489776
    -11.97098549       0.38980381
    -11.95597799       0.38510879
    -11.94097049       0.38081847
    -11.92596298       0.37691381
    -11.91095548       0.37335985
    -11.89594797       0.37011296
    -11.88094047       0.36712696
    -11.86593297       0.36435849
    -11.85092546       0.36177102
    -11.83591796       0.35933675
    -11.82091046       0.35703609
    -11.80590295       0.35485501
    -11.79089545       0.35278162
    -11.77588794       0.35080363
    -11.76088044       0.34890771
    -11.74587294       0.34708080
    -11.73086543       0.34531241
    -11.71585793       0.34359633
    -11.70085043       0.34193068
    -11.68584292       0.34031601
    -11.67083542       0.33875248
    -11.65582791       0.33723760
    -11.64082041       0.33576566
    -11.62581291       0.33432913
    -11.61080540       0.33292129
    -11.59579790       0.33153845
    -11.58079040       0.33018074
    -11.56578289       0.32885087
    -11.55077539       0.32755168
    -11.53576788       0.32628382
    -11.52076038       0.32504471
    -11.50575288       0.32382937
    -11.49074537       0.32263248
    -11.47573787       0.32145063
    -11.46073037       0.32028335
    -11.44572286       0.31913260
    -11.43071536       0.31800111
    -11.41570785       0.31689045
    -11.40070035       0.31579999
    -11.38569285       0.31472720
    -11.37068534       0.31366893
    -11.35567784       0.31262286
    -11.34067034       0.31158822
    -11.32566283       0.31056554
    -11.31065533       0.30955565
    -11.29564782       0.30855872
    -11.28064032       0.30757402
    -11.26563282       0.30660045
    -11.25062531       0.30563752
    -11.23561781       0.30468584
    -11.22061031       0.30374674
