#        k-dist (A^-1)        energy(eV) :       1 -th eigen
     0.000000                            -19.371836  
     0.015109                            -19.371202  
     0.030217                            -19.369300  
     0.045326                            -19.366132  
     0.060435                            -19.361698  
     0.075543                            -19.356002  
     0.090652                            -19.349045  
     0.105761                            -19.340832  
     0.120870                            -19.331367  
     0.135978                            -19.320654  
     0.151087                            -19.308698  
     0.166196                            -19.295505  
     0.181304                            -19.281081  
     0.196413                            -19.265433  
     0.211522                            -19.248567  
     0.226630                            -19.230491  
     0.241739                            -19.211212  
     0.256848                            -19.190739  
     0.271957                            -19.169078  
     0.287065                            -19.146239  
     0.302174                            -19.122229  
     0.317283                            -19.097058  
     0.332391                            -19.070732  
     0.347500                            -19.043261  
     0.362609                            -19.014652  
     0.377717                            -18.984915  
     0.392826                            -18.954055  
     0.407935                            -18.922081  
     0.423044                            -18.889001  
     0.438152                            -18.854821  
     0.453261                            -18.819547  
     0.468370                            -18.783186  
     0.483478                            -18.745743  
     0.498587                            -18.707225  
     0.513696                            -18.667634  
     0.528804                            -18.626975  
     0.543913                            -18.585253  
     0.559022                            -18.542470  
     0.574131                            -18.498627  
     0.589239                            -18.453728  
     0.604348                            -18.407774  
     0.619457                            -18.360764  
     0.634565                            -18.312699  
     0.649674                            -18.263579  
     0.664783                            -18.213401  
     0.679891                            -18.162166  
     0.695000                            -18.109869  
     0.710109                            -18.056510  
     0.725218                            -18.002083  
     0.740326                            -17.946587  
     0.740326                            -17.946587  
     0.755435                            -18.002083  
     0.770544                            -18.056510  
     0.785652                            -18.109869  
     0.800761                            -18.162166  
     0.815870                            -18.213401  
     0.830978                            -18.263579  
     0.846087                            -18.312699  
     0.861196                            -18.360764  
     0.876305                            -18.407774  
     0.891413                            -18.453728  
     0.906522                            -18.498627  
     0.921631                            -18.542470  
     0.936739                            -18.585253  
     0.951848                            -18.626975  
     0.966957                            -18.667634  
     0.982065                            -18.707225  
     0.997174                            -18.745743  
     1.012283                            -18.783186  
     1.027392                            -18.819547  
     1.042500                            -18.854821  
     1.057609                            -18.889001  
     1.072718                            -18.922081  
     1.087826                            -18.954055  
     1.102935                            -18.984915  
     1.118044                            -19.014652  
     1.133152                            -19.043261  
     1.148261                            -19.070732  
     1.163370                            -19.097058  
     1.178479                            -19.122229  
     1.193587                            -19.146239  
     1.208696                            -19.169078  
     1.223805                            -19.190739  
     1.238913                            -19.211212  
     1.254022                            -19.230491  
     1.269131                            -19.248567  
     1.284239                            -19.265433  
     1.299348                            -19.281081  
     1.314457                            -19.295505  
     1.329566                            -19.308698  
     1.344674                            -19.320654  
     1.359783                            -19.331367  
     1.374892                            -19.340832  
     1.390000                            -19.349045  
     1.405109                            -19.356002  
     1.420218                            -19.361698  
     1.435326                            -19.366132  
     1.450435                            -19.369300  
     1.465544                            -19.371202  
     1.480653                            -19.371836  
 
 
#        k-dist (A^-1)        energy(eV) :       2 -th eigen
     0.000000                            -19.371836  
     0.015109                            -19.371202  
     0.030217                            -19.369300  
     0.045326                            -19.366132  
     0.060435                            -19.361698  
     0.075543                            -19.356002  
     0.090652                            -19.349045  
     0.105761                            -19.340832  
     0.120870                            -19.331367  
     0.135978                            -19.320654  
     0.151087                            -19.308698  
     0.166196                            -19.295505  
     0.181304                            -19.281081  
     0.196413                            -19.265433  
     0.211522                            -19.248567  
     0.226630                            -19.230491  
     0.241739                            -19.211212  
     0.256848                            -19.190739  
     0.271957                            -19.169078  
     0.287065                            -19.146239  
     0.302174                            -19.122229  
     0.317283                            -19.097058  
     0.332391                            -19.070732  
     0.347500                            -19.043261  
     0.362609                            -19.014652  
     0.377717                            -18.984915  
     0.392826                            -18.954055  
     0.407935                            -18.922081  
     0.423044                            -18.889001  
     0.438152                            -18.854821  
     0.453261                            -18.819547  
     0.468370                            -18.783186  
     0.483478                            -18.745743  
     0.498587                            -18.707225  
     0.513696                            -18.667634  
     0.528804                            -18.626975  
     0.543913                            -18.585253  
     0.559022                            -18.542470  
     0.574131                            -18.498627  
     0.589239                            -18.453728  
     0.604348                            -18.407774  
     0.619457                            -18.360764  
     0.634565                            -18.312699  
     0.649674                            -18.263579  
     0.664783                            -18.213401  
     0.679891                            -18.162166  
     0.695000                            -18.109869  
     0.710109                            -18.056510  
     0.725218                            -18.002083  
     0.740326                            -17.946587  
     0.740326                            -17.946587  
     0.755435                            -18.002083  
     0.770544                            -18.056510  
     0.785652                            -18.109869  
     0.800761                            -18.162166  
     0.815870                            -18.213401  
     0.830978                            -18.263579  
     0.846087                            -18.312699  
     0.861196                            -18.360764  
     0.876305                            -18.407774  
     0.891413                            -18.453728  
     0.906522                            -18.498627  
     0.921631                            -18.542470  
     0.936739                            -18.585253  
     0.951848                            -18.626975  
     0.966957                            -18.667634  
     0.982065                            -18.707225  
     0.997174                            -18.745743  
     1.012283                            -18.783186  
     1.027392                            -18.819547  
     1.042500                            -18.854821  
     1.057609                            -18.889001  
     1.072718                            -18.922081  
     1.087826                            -18.954055  
     1.102935                            -18.984915  
     1.118044                            -19.014652  
     1.133152                            -19.043261  
     1.148261                            -19.070732  
     1.163370                            -19.097058  
     1.178479                            -19.122229  
     1.193587                            -19.146239  
     1.208696                            -19.169078  
     1.223805                            -19.190739  
     1.238913                            -19.211212  
     1.254022                            -19.230491  
     1.269131                            -19.248567  
     1.284239                            -19.265433  
     1.299348                            -19.281081  
     1.314457                            -19.295505  
     1.329566                            -19.308698  
     1.344674                            -19.320654  
     1.359783                            -19.331367  
     1.374892                            -19.340832  
     1.390000                            -19.349045  
     1.405109                            -19.356002  
     1.420218                            -19.361698  
     1.435326                            -19.366132  
     1.450435                            -19.369300  
     1.465544                            -19.371202  
     1.480653                            -19.371836  
 
 
#        k-dist (A^-1)        energy(eV) :       3 -th eigen
     0.000000                            -19.338013  
     0.015109                            -19.337381  
     0.030217                            -19.335487  
     0.045326                            -19.332332  
     0.060435                            -19.327917  
     0.075543                            -19.322244  
     0.090652                            -19.315316  
     0.105761                            -19.307137  
     0.120870                            -19.297710  
     0.135978                            -19.287040  
     0.151087                            -19.275133  
     0.166196                            -19.261994  
     0.181304                            -19.247629  
     0.196413                            -19.232044  
     0.211522                            -19.215246  
     0.226630                            -19.197243  
     0.241739                            -19.178041  
     0.256848                            -19.157649  
     0.271957                            -19.136075  
     0.287065                            -19.113326  
     0.302174                            -19.089411  
     0.317283                            -19.064338  
     0.332391                            -19.038115  
     0.347500                            -19.010751  
     0.362609                            -18.982252  
     0.377717                            -18.952628  
     0.392826                            -18.921887  
     0.407935                            -18.890034  
     0.423044                            -18.857078  
     0.438152                            -18.823026  
     0.453261                            -18.787883  
     0.468370                            -18.751656  
     0.483478                            -18.714351  
     0.498587                            -18.675971  
     0.513696                            -18.636523  
     0.528804                            -18.596010  
     0.543913                            -18.554436  
     0.559022                            -18.511803  
     0.574131                            -18.468113  
     0.589239                            -18.423369  
     0.604348                            -18.377572  
     0.619457                            -18.330721  
     0.634565                            -18.282818  
     0.649674                            -18.233860  
     0.664783                            -18.183848  
     0.679891                            -18.132779  
     0.695000                            -18.080651  
     0.710109                            -18.027462  
     0.725218                            -17.973207  
     0.740326                            -17.946587  
     0.740326                            -17.946587  
     0.755435                            -17.973207  
     0.770544                            -18.027462  
     0.785652                            -18.080651  
     0.800761                            -18.132779  
     0.815870                            -18.183848  
     0.830978                            -18.233860  
     0.846087                            -18.282818  
     0.861196                            -18.330721  
     0.876305                            -18.377572  
     0.891413                            -18.423369  
     0.906522                            -18.468113  
     0.921631                            -18.511803  
     0.936739                            -18.554436  
     0.951848                            -18.596010  
     0.966957                            -18.636523  
     0.982065                            -18.675971  
     0.997174                            -18.714351  
     1.012283                            -18.751656  
     1.027392                            -18.787883  
     1.042500                            -18.823026  
     1.057609                            -18.857078  
     1.072718                            -18.890034  
     1.087826                            -18.921887  
     1.102935                            -18.952628  
     1.118044                            -18.982252  
     1.133152                            -19.010751  
     1.148261                            -19.038115  
     1.163370                            -19.064338  
     1.178479                            -19.089411  
     1.193587                            -19.113326  
     1.208696                            -19.136075  
     1.223805                            -19.157649  
     1.238913                            -19.178041  
     1.254022                            -19.197243  
     1.269131                            -19.215246  
     1.284239                            -19.232044  
     1.299348                            -19.247629  
     1.314457                            -19.261994  
     1.329566                            -19.275133  
     1.344674                            -19.287040  
     1.359783                            -19.297710  
     1.374892                            -19.307137  
     1.390000                            -19.315316  
     1.405109                            -19.322244  
     1.420218                            -19.327917  
     1.435326                            -19.332332  
     1.450435                            -19.335487  
     1.465544                            -19.337381  
     1.480653                            -19.338013  
 
 
#        k-dist (A^-1)        energy(eV) :       4 -th eigen
     0.000000                            -19.338013  
     0.015109                            -19.337381  
     0.030217                            -19.335487  
     0.045326                            -19.332332  
     0.060435                            -19.327917  
     0.075543                            -19.322244  
     0.090652                            -19.315316  
     0.105761                            -19.307137  
     0.120870                            -19.297710  
     0.135978                            -19.287040  
     0.151087                            -19.275133  
     0.166196                            -19.261994  
     0.181304                            -19.247629  
     0.196413                            -19.232044  
     0.211522                            -19.215246  
     0.226630                            -19.197243  
     0.241739                            -19.178041  
     0.256848                            -19.157649  
     0.271957                            -19.136075  
     0.287065                            -19.113326  
     0.302174                            -19.089411  
     0.317283                            -19.064338  
     0.332391                            -19.038115  
     0.347500                            -19.010751  
     0.362609                            -18.982252  
     0.377717                            -18.952628  
     0.392826                            -18.921887  
     0.407935                            -18.890034  
     0.423044                            -18.857078  
     0.438152                            -18.823026  
     0.453261                            -18.787883  
     0.468370                            -18.751656  
     0.483478                            -18.714351  
     0.498587                            -18.675971  
     0.513696                            -18.636523  
     0.528804                            -18.596010  
     0.543913                            -18.554436  
     0.559022                            -18.511803  
     0.574131                            -18.468113  
     0.589239                            -18.423369  
     0.604348                            -18.377572  
     0.619457                            -18.330721  
     0.634565                            -18.282818  
     0.649674                            -18.233860  
     0.664783                            -18.183848  
     0.679891                            -18.132779  
     0.695000                            -18.080651  
     0.710109                            -18.027462  
     0.725218                            -17.973207  
     0.740326                            -17.946587  
     0.740326                            -17.946587  
     0.755435                            -17.973207  
     0.770544                            -18.027462  
     0.785652                            -18.080651  
     0.800761                            -18.132779  
     0.815870                            -18.183848  
     0.830978                            -18.233860  
     0.846087                            -18.282818  
     0.861196                            -18.330721  
     0.876305                            -18.377572  
     0.891413                            -18.423369  
     0.906522                            -18.468113  
     0.921631                            -18.511803  
     0.936739                            -18.554436  
     0.951848                            -18.596010  
