#        k-dist (A^-1)        energy(eV) :       1 -th eigen
# wavefunction coeff.: <ci|sigma|ci>,sigma=sigma_0 
# k-dist   (ci: wfn coeff for i-th orb)   E(eV), i=        1        2        3        4        5        6        7        8
     0.000000                            -19.383143    0.5000   0.0000   0.0000   0.0000   0.5000   0.0000   0.0000   0.0000
     0.014956                            -19.382489    0.5000   0.0000   0.0000   0.0000   0.5000   0.0000   0.0000   0.0000
     0.029912                            -19.380526    0.4999   0.0001   0.0000   0.0000   0.4999   0.0001   0.0000   0.0000
     0.044868                            -19.377257    0.4997   0.0002   0.0001   0.0000   0.4997   0.0002   0.0001   0.0000
     0.059824                            -19.372682    0.4995   0.0004   0.0001   0.0000   0.4995   0.0004   0.0001   0.0000
     0.074780                            -19.366803    0.4993   0.0006   0.0002   0.0000   0.4993   0.0006   0.0002   0.0000
     0.089737                            -19.359624    0.4989   0.0008   0.0003   0.0000   0.4989   0.0008   0.0003   0.0000
     0.104693                            -19.351148    0.4986   0.0011   0.0004   0.0000   0.4986   0.0011   0.0004   0.0000
     0.119649                            -19.341379    0.4981   0.0014   0.0005   0.0000   0.4981   0.0014   0.0005   0.0000
     0.134605                            -19.330322    0.4976   0.0018   0.0006   0.0000   0.4976   0.0018   0.0006   0.0000
     0.149561                            -19.317981    0.4971   0.0022   0.0007   0.0000   0.4971   0.0022   0.0007   0.0000
     0.164517                            -19.304363    0.4964   0.0027   0.0009   0.0000   0.4964   0.0027   0.0009   0.0000
     0.179473                            -19.289473    0.4958   0.0032   0.0011   0.0000   0.4958   0.0032   0.0011   0.0000
     0.194429                            -19.273317    0.4950   0.0037   0.0012   0.0000   0.4950   0.0037   0.0012   0.0000
     0.209385                            -19.255904    0.4943   0.0043   0.0014   0.0000   0.4943   0.0043   0.0014   0.0000
     0.224341                            -19.237239    0.4934   0.0049   0.0016   0.0000   0.4934   0.0049   0.0016   0.0000
     0.239297                            -19.217332    0.4925   0.0056   0.0019   0.0000   0.4925   0.0056   0.0019   0.0000
     0.254253                            -19.196189    0.4915   0.0063   0.0021   0.0000   0.4915   0.0063   0.0021   0.0000
     0.269210                            -19.173818    0.4905   0.0071   0.0024   0.0000   0.4905   0.0071   0.0024   0.0000
     0.284166                            -19.150229    0.4895   0.0079   0.0026   0.0000   0.4895   0.0079   0.0026   0.0000
     0.299122                            -19.125429    0.4883   0.0088   0.0029   0.0000   0.4883   0.0088   0.0029   0.0000
     0.314078                            -19.099428    0.4871   0.0096   0.0032   0.0000   0.4871   0.0096   0.0032   0.0000
     0.329034                            -19.072232    0.4859   0.0106   0.0035   0.0000   0.4859   0.0106   0.0035   0.0000
     0.343990                            -19.043853    0.4846   0.0115   0.0038   0.0000   0.4846   0.0115   0.0038   0.0000
     0.358946                            -19.014296    0.4833   0.0125   0.0042   0.0000   0.4833   0.0125   0.0042   0.0000
     0.373902                            -18.983573    0.4819   0.0136   0.0045   0.0000   0.4819   0.0136   0.0045   0.0000
     0.388858                            -18.951689    0.4804   0.0147   0.0049   0.0000   0.4804   0.0147   0.0049   0.0000
     0.403814                            -18.918655    0.4789   0.0158   0.0053   0.0000   0.4789   0.0158   0.0053   0.0000
     0.418770                            -18.884477    0.4774   0.0170   0.0057   0.0000   0.4774   0.0170   0.0057   0.0000
     0.433727                            -18.849163    0.4758   0.0182   0.0061   0.0000   0.4758   0.0182   0.0061   0.0000
     0.448683                            -18.812720    0.4741   0.0194   0.0065   0.0000   0.4741   0.0194   0.0065   0.0000
     0.463639                            -18.775156    0.4724   0.0207   0.0069   0.0000   0.4724   0.0207   0.0069   0.0000
     0.478595                            -18.736477    0.4707   0.0220   0.0073   0.0000   0.4707   0.0220   0.0073   0.0000
     0.493551                            -18.696689    0.4689   0.0233   0.0078   0.0000   0.4689   0.0233   0.0078   0.0000
     0.508507                            -18.655798    0.4671   0.0247   0.0082   0.0000   0.4671   0.0247   0.0082   0.0000
     0.523463                            -18.613808    0.4652   0.0261   0.0087   0.0000   0.4652   0.0261   0.0087   0.0000
     0.538419                            -18.570726    0.4633   0.0276   0.0092   0.0000   0.4633   0.0276   0.0092   0.0000
     0.553375                            -18.526554    0.4613   0.0290   0.0097   0.0000   0.4613   0.0290   0.0097   0.0000
     0.568331                            -18.481296    0.4593   0.0305   0.0102   0.0000   0.4593   0.0305   0.0102   0.0000
     0.583287                            -18.434956    0.4573   0.0321   0.0107   0.0000   0.4573   0.0321   0.0107   0.0000
     0.598243                            -18.387537    0.4552   0.0336   0.0112   0.0000   0.4552   0.0336   0.0112   0.0000
     0.613200                            -18.339039    0.4531   0.0352   0.0117   0.0000   0.4531   0.0352   0.0117   0.0000
     0.628156                            -18.289464    0.4509   0.0368   0.0123   0.0000   0.4509   0.0368   0.0123   0.0000
     0.643112                            -18.238814    0.4487   0.0385   0.0128   0.0000   0.4487   0.0385   0.0128   0.0000
     0.658068                            -18.187088    0.4465   0.0401   0.0134   0.0000   0.4465   0.0401   0.0134   0.0000
     0.673024                            -18.134287    0.4443   0.0418   0.0139   0.0000   0.4443   0.0418   0.0139   0.0000
     0.687980                            -18.080410    0.4420   0.0435   0.0145   0.0000   0.4420   0.0435   0.0145   0.0000
     0.702936                            -18.025454    0.4397   0.0452   0.0151   0.0000   0.4397   0.0452   0.0151   0.0000
     0.717892                            -17.969420    0.4374   0.0470   0.0157   0.0000   0.4374   0.0470   0.0157   0.0000
     0.732848                            -17.912303    0.4350   0.0487   0.0162   0.0000   0.4350   0.0487   0.0162   0.0000
     0.747804                            -17.854103    0.4326   0.0505   0.0168   0.0000   0.4326   0.0505   0.0168   0.0000
     0.762760                            -17.794816    0.4302   0.0523   0.0174   0.0000   0.4302   0.0523   0.0174   0.0000
     0.777716                            -17.734439    0.4278   0.0541   0.0180   0.0000   0.4278   0.0541   0.0180   0.0000
     0.792673                            -17.672967    0.4254   0.0559   0.0186   0.0000   0.4254   0.0559   0.0186   0.0000
     0.807629                            -17.610399    0.4230   0.0578   0.0193   0.0000   0.4230   0.0578   0.0193   0.0000
     0.822585                            -17.546728    0.4205   0.0596   0.0199   0.0000   0.4205   0.0596   0.0199   0.0000
     0.837541                            -17.481952    0.4180   0.0615   0.0205   0.0000   0.4180   0.0615   0.0205   0.0000
     0.852497                            -17.416067    0.4156   0.0633   0.0211   0.0000   0.4156   0.0633   0.0211   0.0000
     0.867453                            -17.349067    0.4131   0.0652   0.0217   0.0000   0.4131   0.0652   0.0217   0.0000
     0.882409                            -17.280949    0.4106   0.0671   0.0224   0.0000   0.4106   0.0671   0.0224   0.0000
     0.897365                            -17.211708    0.4081   0.0689   0.0230   0.0000   0.4081   0.0689   0.0230   0.0000
     0.912321                            -17.141342    0.4056   0.0708   0.0236   0.0000   0.4056   0.0708   0.0236   0.0000
     0.927277                            -17.069846    0.4031   0.0727   0.0242   0.0000   0.4031   0.0727   0.0242   0.0000
     0.942233                            -16.997217    0.4006   0.0745   0.0248   0.0000   0.4006   0.0745   0.0248   0.0000
     0.957190                            -16.923453    0.3982   0.0764   0.0255   0.0000   0.3982   0.0764   0.0255   0.0000
     0.972146                            -16.848551    0.3957   0.0782   0.0261   0.0000   0.3957   0.0782   0.0261   0.0000
     0.987102                            -16.772509    0.3933   0.0801   0.0267   0.0000   0.3933   0.0801   0.0267   0.0000
     1.002058                            -16.695327    0.3908   0.0819   0.0273   0.0000   0.3908   0.0819   0.0273   0.0000
     1.017014                            -16.617005    0.3884   0.0837   0.0279   0.0000   0.3884   0.0837   0.0279   0.0000
     1.031970                            -16.537543    0.3860   0.0855   0.0285   0.0000   0.3860   0.0855   0.0285   0.0000
     1.046926                            -16.456945    0.3836   0.0873   0.0291   0.0000   0.3836   0.0873   0.0291   0.0000
     1.061882                            -16.375213    0.3813   0.0890   0.0297   0.0000   0.3813   0.0890   0.0297   0.0000
     1.076838                            -16.292353    0.3790   0.0907   0.0302   0.0000   0.3790   0.0907   0.0302   0.0000
     1.091794                            -16.208372    0.3768   0.0924   0.0308   0.0000   0.3768   0.0924   0.0308   0.0000
     1.106750                            -16.123279    0.3746   0.0941   0.0314   0.0000   0.3746   0.0941   0.0314   0.0000
     1.121706                            -16.037086    0.3724   0.0957   0.0319   0.0000   0.3724   0.0957   0.0319   0.0000
     1.136663                            -15.949806    0.3703   0.0972   0.0324   0.0000   0.3703   0.0972   0.0324   0.0000
     1.151619                            -15.861459    0.3683   0.0987   0.0329   0.0000   0.3683   0.0987   0.0329   0.0000
     1.166575                            -15.772065    0.3664   0.1002   0.0334   0.0000   0.3664   0.1002   0.0334   0.0000
     1.181531                            -15.681652    0.3646   0.1016   0.0339   0.0000   0.3646   0.1016   0.0339   0.0000
     1.196487                            -15.590252    0.3629   0.1029   0.0343   0.0000   0.3629   0.1029   0.0343   0.0000
     1.211443                            -15.497906    0.3613   0.1040   0.0347   0.0000   0.3613   0.1040   0.0347   0.0000
     1.226399                            -15.404663    0.3598   0.1051   0.0350   0.0000   0.3598   0.1051   0.0350   0.0000
     1.241355                            -15.310582    0.3585   0.1061   0.0354   0.0000   0.3585   0.1061   0.0354   0.0000
     1.256311                            -15.215741    0.3575   0.1069   0.0356   0.0000   0.3575   0.1069   0.0356   0.0000
     1.271267                            -15.120232    0.3566   0.1075   0.0358   0.0000   0.3566   0.1075   0.0358   0.0000
     1.286223                            -15.024177    0.3561   0.1079   0.0360   0.0000   0.3561   0.1079   0.0360   0.0000
     1.301180                            -14.927730    0.3559   0.1081   0.0360   0.0000   0.3559   0.1081   0.0360   0.0000
     1.316136                            -14.831091    0.3561   0.1079   0.0360   0.0000   0.3561   0.1079   0.0360   0.0000
     1.331092                            -14.734528    0.3568   0.1074   0.0358   0.0000   0.3568   0.1074   0.0358   0.0000
     1.346048                            -14.638402    0.3581   0.1064   0.0355   0.0000   0.3581   0.1064   0.0355   0.0000
     1.361004                            -14.543210    0.3602   0.1049   0.0350   0.0000   0.3602   0.1049   0.0350   0.0000
     1.375960                            -14.449655    0.3632   0.1026   0.0342   0.0000   0.3632   0.1026   0.0342   0.0000
     1.390916                            -14.358744    0.3673   0.0995   0.0332   0.0000   0.3673   0.0995   0.0332   0.0000
     1.405872                            -14.271957    0.3728   0.0954   0.0318   0.0000   0.3728   0.0954   0.0318   0.0000
     1.420828                            -14.191476    0.3798   0.0902   0.0301   0.0000   0.3798   0.0902   0.0301   0.0000
     1.435784                            -14.120498    0.3880   0.0840   0.0280   0.0000   0.3880   0.0840   0.0280   0.0000
     1.450740                            -14.063468    0.3966   0.0776   0.0259   0.0000   0.3966   0.0776   0.0259   0.0000
     1.465696                            -14.025826    0.4035   0.0724   0.0241   0.0000   0.4035   0.0724   0.0241   0.0000
     1.480653                            -14.012572    0.4062   0.0703   0.0234   0.0000   0.4062   0.0703   0.0234   0.0000
     1.480653                            -14.012572    0.4062   0.0703   0.0234   0.0000   0.4062   0.0703   0.0234   0.0000
     1.489287                            -14.012430    0.4062   0.0703   0.0235   0.0000   0.4062   0.0703   0.0235   0.0000
     1.497922                            -14.012002    0.4062   0.0703   0.0235   0.0000   0.4062   0.0703   0.0235   0.0000
     1.506557                            -14.011290    0.4061   0.0704   0.0236   0.0000   0.4061   0.0704   0.0236   0.0000
     1.515192                            -14.010293    0.4059   0.0704   0.0237   0.0000   0.4059   0.0704   0.0237   0.0000
     1.523827                            -14.009010    0.4058   0.0705   0.0238   0.0000   0.4058   0.0705   0.0238   0.0000
     1.532462                            -14.007440    0.4056   0.0705   0.0239   0.0000   0.4056   0.0705   0.0239   0.0000
     1.541097                            -14.005584    0.4053   0.0706   0.0241   0.0000   0.4053   0.0706   0.0241   0.0000
     1.549732                            -14.003440    0.4050   0.0707   0.0243   0.0000   0.4050   0.0707   0.0243   0.0000
     1.558367                            -14.001007    0.4047   0.0708   0.0245   0.0000   0.4047   0.0708   0.0245   0.0000
     1.567002                            -13.998285    0.4043   0.0709   0.0248   0.0000   0.4043   0.0709   0.0248   0.0000
     1.575636                            -13.995272    0.4039   0.0710   0.0250   0.0000   0.4039   0.0710   0.0250   0.0000
     1.584271                            -13.991967    0.4035   0.0711   0.0253   0.0000   0.4035   0.0711   0.0253   0.0000
     1.592906                            -13.988368    0.4030   0.0713   0.0257   0.0000   0.4030   0.0713   0.0257   0.0000
     1.601541                            -13.984474    0.4025   0.0714   0.0260   0.0000   0.4025   0.0714   0.0260   0.0000
     1.610176                            -13.980284    0.4020   0.0716   0.0264   0.0000   0.4020   0.0716   0.0264   0.0000
     1.618811                            -13.975796    0.4014   0.0718   0.0268   0.0000   0.4014   0.0718   0.0268   0.0000
     1.627446                            -13.971007    0.4008   0.0720   0.0272   0.0000   0.4008   0.0720   0.0272   0.0000
     1.636081                            -13.965917    0.4002   0.0722   0.0277   0.0000   0.4002   0.0722   0.0277   0.0000
     1.644716                            -13.960524    0.3995   0.0724   0.0282   0.0000   0.3995   0.0724   0.0282   0.0000
     1.653351                            -13.954824    0.3988   0.0726   0.0286   0.0000   0.3988   0.0726   0.0286   0.0000
     1.661985                            -13.948817    0.3980   0.0728   0.0292   0.0000   0.3980   0.0728   0.0292   0.0000
     1.670620                            -13.942499    0.3972   0.0730   0.0297   0.0000   0.3972   0.0730   0.0297   0.0000
     1.679255                            -13.935869    0.3964   0.0733   0.0303   0.0000   0.3964   0.0733   0.0303   0.0000
     1.687890                            -13.928925    0.3956   0.0735   0.0309   0.0000   0.3956   0.0735   0.0309   0.0000
     1.696525                            -13.921663    0.3947   0.0738   0.0315   0.0000   0.3947   0.0738   0.0315   0.0000
     1.705160                            -13.914082    0.3938   0.0741   0.0321   0.0000   0.3938   0.0741   0.0321   0.0000
     1.713795                            -13.906179    0.3929   0.0744   0.0327   0.0000   0.3929   0.0744   0.0327   0.0000
     1.722430                            -13.897951    0.3919   0.0747   0.0334   0.0000   0.3919   0.0747   0.0334   0.0000
     1.731065                            -13.889396    0.3909   0.0750   0.0341   0.0000   0.3909   0.0750   0.0341   0.0000
     1.739700                            -13.880511    0.3899   0.0753   0.0348   0.0000   0.3899   0.0753   0.0348   0.0000
     1.748334                            -13.871294    0.3889   0.0756   0.0355   0.0000   0.3889   0.0756   0.0355   0.0000
     1.756969                            -13.861742    0.3878   0.0759   0.0363   0.0000   0.3878   0.0759   0.0363   0.0000
     1.765604                            -13.851852    0.3867   0.0762   0.0370   0.0000   0.3867   0.0762   0.0370   0.0000
     1.774239                            -13.841621    0.3856   0.0766   0.0378   0.0000   0.3856   0.0766   0.0378   0.0000
     1.782874                            -13.831047    0.3844   0.0769   0.0386   0.0000   0.3844   0.0769   0.0386   0.0000
     1.791509                            -13.820127    0.3833   0.0773   0.0394   0.0000   0.3833   0.0773   0.0394   0.0000
     1.800144                            -13.808858    0.3821   0.0777   0.0403   0.0000   0.3821   0.0777   0.0403   0.0000
     1.808779                            -13.797237    0.3809   0.0780   0.0411   0.0000   0.3809   0.0780   0.0411   0.0000
     1.817414                            -13.785262    0.3796   0.0784   0.0420   0.0000   0.3796   0.0784   0.0420   0.0000
     1.826049                            -13.772930    0.3784   0.0788   0.0429   0.0000   0.3784   0.0788   0.0429   0.0000
     1.834683                            -13.760238    0.3771   0.0792   0.0437   0.0000   0.3771   0.0792   0.0437   0.0000
     1.843318                            -13.747184    0.3758   0.0796   0.0447   0.0000   0.3758   0.0796   0.0447   0.0000
     1.851953                            -13.733764    0.3745   0.0800   0.0456   0.0000   0.3745   0.0800   0.0456   0.0000
     1.860588                            -13.719976    0.3731   0.0804   0.0465   0.0000   0.3731   0.0804   0.0465   0.0000
     1.869223                            -13.705818    0.3718   0.0808   0.0474   0.0000   0.3718   0.0808   0.0474   0.0000
     1.877858                            -13.691287    0.3704   0.0812   0.0484   0.0000   0.3704   0.0812   0.0484   0.0000
     1.886493                            -13.676381    0.3690   0.0816   0.0494   0.0000   0.3690   0.0816   0.0494   0.0000
     1.895128                            -13.661096    0.3676   0.0821   0.0503   0.0000   0.3676   0.0821   0.0503   0.0000
     1.903763                            -13.645431    0.3662   0.0825   0.0513   0.0000   0.3662   0.0825   0.0513   0.0000
     1.912398                            -13.629383    0.3647   0.0829   0.0523   0.0000   0.3647   0.0829   0.0523   0.0000
     1.921032                            -13.612950    0.3633   0.0834   0.0533   0.0000   0.3633   0.0834   0.0533   0.0000
     1.929667                            -13.596129    0.3618   0.0838   0.0543   0.0000   0.3618   0.0838   0.0543   0.0000
     1.938302                            -13.578919    0.3604   0.0843   0.0554   0.0000   0.3604   0.0843   0.0554   0.0000
     1.946937                            -13.561317    0.3589   0.0847   0.0564   0.0000   0.3589   0.0847   0.0564   0.0000
     1.955572                            -13.543321    0.3574   0.0852   0.0574   0.0000   0.3574   0.0852   0.0574   0.0000
     1.964207                            -13.524930    0.3559   0.0856   0.0585   0.0000   0.3559   0.0856   0.0585   0.0000
     1.972842                            -13.506140    0.3543   0.0861   0.0596   0.0000   0.3543   0.0861   0.0596   0.0000
