#k-dist(A^-1)  energy(eV)   weight,       1 -th eigen
   0.000000  -12.361370      0.050 
   0.016932  -12.361620      0.050 
   0.033864  -12.361180      0.050 
   0.050796  -12.360030      0.050 
   0.067728  -12.358190      0.050 
   0.084661  -12.355650      0.050 
   0.101593  -12.352440      0.050 
   0.118525  -12.348580      0.050 
   0.135457  -12.344080      0.050 
   0.152389  -12.338960      0.050 
   0.169321  -12.333240      0.050 
   0.186253  -12.326960      0.050 
   0.203185  -12.320140      0.050 
   0.220117  -12.312810      0.050 
   0.237049  -12.305010      0.050 
   0.253982  -12.296780      0.050 
   0.270914  -12.288160      0.050 
   0.287846  -12.279180      0.050 
   0.304778  -12.269920      0.050 
   0.321710  -12.260380      0.050 
   0.338642  -12.250660      0.050 
   0.355574  -12.240790      0.050 
   0.372506  -12.230830      0.050 
   0.389438  -12.220860      0.050 
   0.406370  -12.210910      0.050 
   0.423303  -12.201060      0.050 
   0.440235  -12.191390      0.050 
   0.457167  -12.181950      0.050 
   0.474099  -12.172830      0.050 
   0.491031  -12.164100      0.050 
   0.507963  -12.155820      0.050 
   0.524895  -12.148080      0.050 
   0.541827  -12.140960      0.050 
   0.558759  -12.134530      0.050 
   0.575692  -12.128870      0.050 
   0.592624  -12.124070      0.050 
   0.609556  -12.120200      0.050 
   0.626488  -12.117340      0.050 
   0.643420  -12.115570      0.050 
   0.660352  -12.114960      0.050 
   0.660352  -12.114960      0.050 
   0.694216  -12.117520      0.050 
   0.728080  -12.125570      0.050 
   0.761945  -12.139570      0.050 
   0.795809  -12.159890      0.050 
   0.829673  -12.186830      0.050 
   0.863537  -12.220530      0.050 
   0.897401  -12.261020      0.050 
   0.931266  -12.308210      0.050 
   0.965130  -12.361860      0.050 
   0.998994  -12.421640      0.050 
   1.032858  -12.487080      0.050 
   1.066723  -12.557630      0.050 
   1.100587  -12.632690      0.050 
   1.134451  -12.711570      0.050 
   1.168315  -12.793580      0.050 
   1.202179  -12.878010      0.050 
   1.236044  -12.964140      0.050 
   1.269908  -13.051260      0.050 
   1.303772  -13.138690      0.050 
   1.337636  -13.225800      0.050 
   1.371500  -13.311950      0.050 
   1.405365  -13.396560      0.050 
   1.439229  -13.479080      0.050 
   1.473093  -13.559000      0.050 
   1.506957  -13.635850      0.050 
   1.540821  -13.709190      0.050 
   1.574686  -13.778660      0.050 
   1.608550  -13.843850      0.050 
   1.642414  -13.904450      0.050 
   1.676278  -13.960170      0.050 
   1.710142  -14.010730      0.050 
   1.744007  -14.055880      0.050 
   1.777871  -14.095440      0.050 
   1.811735  -14.129230      0.050 
   1.845599  -14.157070      0.050 
   1.879463  -14.178860      0.050 
   1.913328  -14.194500      0.050 
   1.947192  -14.203910      0.050 
   1.981056  -14.207040      0.050 
   1.981056  -14.207040      0.050 
   2.014920  -14.203910      0.050 
   2.048785  -14.194500      0.050 
   2.082649  -14.178860      0.050 
   2.116513  -14.157070      0.050 
   2.150377  -14.129230      0.050 
   2.184241  -14.095440      0.050 
   2.218106  -14.055880      0.050 
   2.251970  -14.010730      0.050 
   2.285834  -13.960170      0.050 
   2.319698  -13.904450      0.050 
   2.353562  -13.843850      0.050 
   2.387427  -13.778660      0.050 
   2.421291  -13.709200      0.050 
   2.455155  -13.635850      0.050 
   2.489019  -13.559000      0.050 
   2.522883  -13.479080      0.050 
   2.556748  -13.396560      0.050 
   2.590612  -13.311950      0.050 
   2.624476  -13.225800      0.050 
   2.658340  -13.138690      0.050 
   2.692204  -13.051260      0.050 
   2.726069  -12.964140      0.050 
   2.759933  -12.878010      0.050 
   2.793797  -12.793580      0.050 
   2.827661  -12.711570      0.050 
   2.861525  -12.632690      0.050 
   2.895390  -12.557630      0.050 
   2.929254  -12.487080      0.050 
   2.963118  -12.421640      0.050 
   2.996982  -12.361860      0.050 
   3.030847  -12.308210      0.050 
   3.064711  -12.261020      0.050 
   3.098575  -12.220530      0.050 
   3.132439  -12.186830      0.050 
   3.166303  -12.159890      0.050 
   3.200168  -12.139570      0.050 
   3.234032  -12.125570      0.050 
   3.267896  -12.117530      0.050 
   3.301760  -12.114960      0.050 
   3.301760  -12.114960      0.050 
   3.318692  -12.115570      0.050 
   3.335624  -12.117340      0.050 
   3.352556  -12.120200      0.050 
   3.369489  -12.124070      0.050 
   3.386421  -12.128870      0.050 
   3.403353  -12.134530      0.050 
   3.420285  -12.140960      0.050 
   3.437217  -12.148080      0.050 
   3.454149  -12.155820      0.050 
   3.471081  -12.164100      0.050 
   3.488013  -12.172830      0.050 
   3.504945  -12.181950      0.050 
   3.521878  -12.191390      0.050 
   3.538810  -12.201060      0.050 
   3.555742  -12.210910      0.050 
   3.572674  -12.220860      0.050 
   3.589606  -12.230830      0.050 
   3.606538  -12.240790      0.050 
   3.623470  -12.250660      0.050 
   3.640402  -12.260380      0.050 
   3.657334  -12.269920      0.050 
   3.674266  -12.279180      0.050 
   3.691199  -12.288160      0.050 
   3.708131  -12.296780      0.050 
   3.725063  -12.305010      0.050 
   3.741995  -12.312810      0.050 
   3.758927  -12.320140      0.050 
   3.775859  -12.326960      0.050 
   3.792791  -12.333240      0.050 
   3.809723  -12.338960      0.050 
   3.826655  -12.344080      0.050 
   3.843587  -12.348580      0.050 
   3.860520  -12.352440      0.050 
   3.877452  -12.355650      0.050 
   3.894384  -12.358190      0.050 
   3.911316  -12.360030      0.050 
   3.928248  -12.361180      0.050 
   3.945180  -12.361620      0.050 
   3.962112  -12.361370      0.050 
 
 
#k-dist(A^-1)  energy(eV)   weight,       2 -th eigen
   0.000000  -12.361370      0.050 
   0.016932  -12.360410      0.050 
   0.033864  -12.358750      0.050 
   0.050796  -12.356390      0.050 
   0.067728  -12.353350      0.050 
   0.084661  -12.349620      0.050 
   0.101593  -12.345210      0.050 
   0.118525  -12.340170      0.050 
   0.135457  -12.334500      0.050 
   0.152389  -12.328220      0.050 
   0.169321  -12.321360      0.050 
   0.186253  -12.313940      0.050 
   0.203185  -12.306000      0.050 
   0.220117  -12.297580      0.050 
   0.237049  -12.288710      0.050 
   0.253982  -12.279420      0.050 
   0.270914  -12.269770      0.050 
   0.287846  -12.259800      0.050 
   0.304778  -12.249550      0.050 
   0.321710  -12.239070      0.050 
   0.338642  -12.228420      0.050 
   0.355574  -12.217660      0.050 
   0.372506  -12.206860      0.050 
   0.389438  -12.196060      0.050 
   0.406370  -12.185330      0.050 
   0.423303  -12.174740      0.050 
   0.440235  -12.164370      0.050 
   0.457167  -12.154280      0.050 
   0.474099  -12.144550      0.050 
   0.491031  -12.135250      0.050 
   0.507963  -12.126460      0.050 
   0.524895  -12.118250      0.050 
   0.541827  -12.110710      0.050 
   0.558759  -12.103920      0.050 
   0.575692  -12.097950      0.050 
   0.592624  -12.092890      0.050 
   0.609556  -12.088820      0.050 
   0.626488  -12.085820      0.050 
   0.643420  -12.083960      0.050 
   0.660352  -12.083320      0.050 
   0.660352  -12.083320      0.050 
   0.694216  -12.086000      0.050 
   0.728080  -12.094400      0.050 
   0.761945  -12.108960      0.050 
   0.795809  -12.130080      0.050 
   0.829673  -12.158010      0.050 
   0.863537  -12.192890      0.050 
   0.897401  -12.234730      0.050 
   0.931266  -12.283400      0.050 
   0.965130  -12.338640      0.050 
   0.998994  -12.400080      0.050 
   1.032858  -12.467210      0.050 
   1.066723  -12.539470      0.050 
   1.100587  -12.616210      0.050 
   1.134451  -12.696730      0.050 
   1.168315  -12.780320      0.050 
   1.202179  -12.866240      0.050 
   1.236044  -12.953780      0.050 
   1.269908  -13.042210      0.050 
   1.303772  -13.130850      0.050 
   1.337636  -13.219070      0.050 
   1.371500  -13.306220      0.050 
   1.405365  -13.391730      0.050 
   1.439229  -13.475050      0.050 
   1.473093  -13.555680      0.050 
   1.506957  -13.633150      0.050 
   1.540821  -13.707040      0.050 
   1.574686  -13.776960      0.050 
   1.608550  -13.842550      0.050 
   1.642414  -13.903470      0.050 
   1.676278  -13.959460      0.050 
   1.710142  -14.010230      0.050 
   1.744007  -14.055550      0.050 
   1.777871  -14.095230      0.050 
   1.811735  -14.129100      0.050 
   1.845599  -14.157010      0.050 
   1.879463  -14.178840      0.050 
   1.913328  -14.194490      0.050 
   1.947192  -14.203900      0.050 
   1.981056  -14.207040      0.050 
   1.981056  -14.207040      0.050 
   2.014920  -14.203900      0.050 
   2.048785  -14.194490      0.050 
   2.082649  -14.178840      0.050 
   2.116513  -14.157010      0.050 
   2.150377  -14.129100      0.050 
   2.184241  -14.095230      0.050 
   2.218106  -14.055550      0.050 
   2.251970  -14.010230      0.050 
   2.285834  -13.959460      0.050 
   2.319698  -13.903470      0.050 
   2.353562  -13.842550      0.050 
   2.387427  -13.776960      0.050 
   2.421291  -13.707040      0.050 
   2.455155  -13.633150      0.050 
   2.489019  -13.555680      0.050 
   2.522883  -13.475050      0.050 
   2.556748  -13.391730      0.050 
   2.590612  -13.306220      0.050 
   2.624476  -13.219070      0.050 
   2.658340  -13.130850      0.050 
   2.692204  -13.042210      0.050 
   2.726069  -12.953780      0.050 
   2.759933  -12.866240      0.050 
   2.793797  -12.780320      0.050 
   2.827661  -12.696730      0.050 
   2.861525  -12.616210      0.050 
   2.895390  -12.539460      0.050 
   2.929254  -12.467210      0.050 
   2.963118  -12.400080      0.050 
   2.996982  -12.338640      0.050 
   3.030847  -12.283400      0.050 
   3.064711  -12.234730      0.050 
   3.098575  -12.192890      0.050 
   3.132439  -12.158010      0.050 
   3.166303  -12.130080      0.050 
   3.200168  -12.108960      0.050 
   3.234032  -12.094400      0.050 
   3.267896  -12.086000      0.050 
   3.301760  -12.083320      0.050 
   3.301760  -12.083320      0.050 
   3.318692  -12.083960      0.050 
   3.335624  -12.085820      0.050 
   3.352556  -12.088820      0.050 
   3.369489  -12.092890      0.050 
   3.386421  -12.097950      0.050 
   3.403353  -12.103920      0.050 
   3.420285  -12.110710      0.050 
   3.437217  -12.118250      0.050 
   3.454149  -12.126460      0.050 
   3.471081  -12.135240      0.050 
   3.488013  -12.144550      0.050 
   3.504945  -12.154280      0.050 
   3.521878  -12.164370      0.050 
   3.538810  -12.174740      0.050 
   3.555742  -12.185330      0.050 
   3.572674  -12.196060      0.050 
   3.589606  -12.206860      0.050 
   3.606538  -12.217660      0.050 
   3.623470  -12.228420      0.050 
   3.640402  -12.239070      0.050 
   3.657334  -12.249550      0.050 
   3.674266  -12.259790      0.050 
   3.691199  -12.269770      0.050 
   3.708131  -12.279420      0.050 
   3.725063  -12.288710      0.050 
   3.741995  -12.297580      0.050 
   3.758927  -12.306000      0.050 
   3.775859  -12.313940      0.050 
   3.792791  -12.321360      0.050 
   3.809723  -12.328220      0.050 
   3.826655  -12.334500      0.050 
   3.843587  -12.340170      0.050 
   3.860520  -12.345210      0.050 
   3.877452  -12.349620      0.050 
   3.894384  -12.353350      0.050 
   3.911316  -12.356390      0.050 
   3.928248  -12.358750      0.050 
   3.945180  -12.360410      0.050 
   3.962112  -12.361370      0.050 
 
 
#k-dist(A^-1)  energy(eV)   weight,       3 -th eigen
   0.000000  -12.183550      0.050 
   0.016932  -12.183370      0.050 
   0.033864  -12.182690      0.050 
   0.050796  -12.181510      0.050 
   0.067728  -12.179830      0.050 
   0.084661  -12.177680      0.050 
   0.101593  -12.175050      0.050 
   0.118525  -12.171960      0.050 
   0.135457  -12.168430      0.050 
   0.152389  -12.164460      0.050 
   0.169321  -12.160080      0.050 
   0.186253  -12.155310      0.050 
   0.203185  -12.150180      0.050 
   0.220117  -12.144700      0.050 
   0.237049  -12.138920      0.050 
   0.253982  -12.132850      0.050 
   0.270914  -12.126540      0.050 
   0.287846  -12.120000      0.050 
   0.304778  -12.113280      0.050 
   0.321710  -12.106410      0.050 
   0.338642  -12.099440      0.050 
   0.355574  -12.092400      0.050 
   0.372506  -12.085340      0.050 
   0.389438  -12.078310      0.050 
   0.406370  -12.071340      0.050 
   0.423303  -12.064480      0.050 
   0.440235  -12.057790      0.050 
   0.457167  -12.051300      0.050 
   0.474099  -12.045070      0.050 
   0.491031  -12.039140      0.050 
   0.507963  -12.033570      0.050 
   0.524895  -12.028390      0.050 
   0.541827  -12.023660      0.050 
   0.558759  -12.019430      0.050 
   0.575692  -12.015740      0.050 
   0.592624  -12.012620      0.050 
   0.609556  -12.010130      0.050 
   0.626488  -12.008310      0.050 
   0.643420  -12.007200      0.050 
   0.660352  -12.006820      0.050 
   0.660352  -12.006820      0.050 
   0.694216  -12.008390      0.050 
   0.728080  -12.013260      0.050 
   0.761945  -12.021600      0.050 
   0.795809  -12.033480      0.050 
   0.829673  -12.048950      0.050 
   0.863537  -12.067980      0.050 
   0.897401  -12.090500      0.050 
   0.931266  -12.116370      0.050 
   0.965130  -12.145400      0.050 
   0.998994  -12.177350      0.050 
   1.032858  -12.211980      0.050 
   1.066723  -12.248980      0.050 
   1.100587  -12.288050      0.050 
   1.134451  -12.328850      0.050 
   1.168315  -12.371060      0.050 
   1.202179  -12.414350      0.050 
   1.236044  -12.458380      0.050 
   1.269908  -12.502830      0.050 
   1.303772  -12.547370      0.050 
   1.337636  -12.591710      0.050 
   1.371500  -12.635560      0.050 
   1.405365  -12.678620      0.050 
   1.439229  -12.720640      0.050 
   1.473093  -12.761360      0.050 
   1.506957  -12.800550      0.050 
   1.540821  -12.837990      0.050 
   1.574686  -12.873460      0.050 
   1.608550  -12.906790      0.050 
   1.642414  -12.937790      0.050 
   1.676278  -12.966320      0.050 
   1.710142  -12.992220      0.050 
   1.744007  -13.015360      0.050 
   1.777871  -13.035660      0.050 
   1.811735  -13.052990      0.050 
   1.845599  -13.067280      0.050 
   1.879463  -13.078450      0.050 
   1.913328  -13.086480      0.050 
   1.947192  -13.091310      0.050 
   1.981056  -13.092920      0.050 
   1.981056  -13.092920      0.050 
   2.014920  -13.091310      0.050 
   2.048785  -13.086480      0.050 
   2.082649  -13.078450      0.050 
   2.116513  -13.067280      0.050 
   2.150377  -13.052990      0.050 
   2.184241  -13.035660      0.050 
   2.218106  -13.015360      0.050 
   2.251970  -12.992220      0.050 
   2.285834  -12.966320      0.050 
   2.319698  -12.937790      0.050 
   2.353562  -12.906790      0.050 
   2.387427  -12.873460      0.050 
   2.421291  -12.837990      0.050 
   2.455155  -12.800550      0.050 
   2.489019  -12.761360      0.050 
   2.522883  -12.720640      0.050 
   2.556748  -12.678620      0.050 
   2.590612  -12.635560      0.050 
   2.624476  -12.591710      0.050 
   2.658340  -12.547370      0.050 
   2.692204  -12.502830      0.050 
   2.726069  -12.458380      0.050 
   2.759933  -12.414350      0.050 
   2.793797  -12.371060      0.050 
   2.827661  -12.328850      0.050 
   2.861525  -12.288050      0.050 
   2.895390  -12.248980      0.050 
   2.929254  -12.211980      0.050 
   2.963118  -12.177350      0.050 
   2.996982  -12.145400      0.050 
   3.030847  -12.116370      0.050 
   3.064711  -12.090500      0.050 
   3.098575  -12.067980      0.050 
   3.132439  -12.048950      0.050 
   3.166303  -12.033480      0.050 
   3.200168  -12.021600      0.050 
   3.234032  -12.013260      0.050 
   3.267896  -12.008390      0.050 
   3.301760  -12.006820      0.050 
   3.301760  -12.006820      0.050 
   3.318692  -12.007200      0.050 
   3.335624  -12.008310      0.050 
   3.352556  -12.010130      0.050 
   3.369489  -12.012620      0.050 
   3.386421  -12.015740      0.050 
   3.403353  -12.019430      0.050 
   3.420285  -12.023660      0.050 
   3.437217  -12.028390      0.050 
   3.454149  -12.033570      0.050 
   3.471081  -12.039140      0.050 
   3.488013  -12.045070      0.050 
   3.504945  -12.051300      0.050 
   3.521878  -12.057790      0.050 
   3.538810  -12.064480      0.050 
   3.555742  -12.071340      0.050 
   3.572674  -12.078310      0.050 
   3.589606  -12.085340      0.050 
   3.606538  -12.092400      0.050 
   3.623470  -12.099440      0.050 
   3.640402  -12.106410      0.050 
   3.657334  -12.113280      0.050 
   3.674266  -12.120000      0.050 
   3.691199  -12.126540      0.050 
   3.708131  -12.132850      0.050 
   3.725063  -12.138920      0.050 
   3.741995  -12.144700      0.050 
   3.758927  -12.150180      0.050 
   3.775859  -12.155310      0.050 
   3.792791  -12.160080      0.050 
   3.809723  -12.164460      0.050 
   3.826655  -12.168430      0.050 
   3.843587  -12.171960      0.050 
   3.860520  -12.175050      0.050 
   3.877452  -12.177680      0.050 
   3.894384  -12.179830      0.050 
   3.911316  -12.181510      0.050 
   3.928248  -12.182690      0.050 
   3.945180  -12.183370      0.050 
   3.962112  -12.183550      0.050 
 
 
#k-dist(A^-1)  energy(eV)   weight,       4 -th eigen
   0.000000  -12.183550      0.050 
   0.016932  -12.183230      0.050 
   0.033864  -12.182410      0.050 
   0.050796  -12.181090      0.050 
   0.067728  -12.179280      0.050 
   0.084661  -12.176990      0.050 
   0.101593  -12.174230      0.050 
   0.118525  -12.171000      0.050 
   0.135457  -12.167330      0.050 
   0.152389  -12.163230      0.050 
   0.169321  -12.158730      0.050 
   0.186253  -12.153830      0.050 
   0.203185  -12.148570      0.050 
   0.220117  -12.142970      0.050 
   0.237049  -12.137070      0.050 
   0.253982  -12.130880      0.050 
   0.270914  -12.124450      0.050 
   0.287846  -12.117800      0.050 
   0.304778  -12.110970      0.050 
   0.321710  -12.104000      0.050 
   0.338642  -12.096920      0.050 
   0.355574  -12.089790      0.050 
   0.372506  -12.082640      0.050 
   0.389438  -12.075520      0.050 
   0.406370  -12.068470      0.050 
   0.423303  -12.061540      0.050 
   0.440235  -12.054770      0.050 
   0.457167  -12.048220      0.050 
   0.474099  -12.041930      0.050 
   0.491031  -12.035950      0.050 
   0.507963  -12.030330      0.050 
   0.524895  -12.025110      0.050 
   0.541827  -12.020350      0.050 
   0.558759  -12.016080      0.050 
   0.575692  -12.012360      0.050 
   0.592624  -12.009230      0.050 
   0.609556  -12.006720      0.050 
   0.626488  -12.004890      0.050 
   0.643420  -12.003770      0.050 
   0.660352  -12.003400      0.050 
   0.660352  -12.003400      0.050 
   0.694216  -12.004970      0.050 
   0.728080  -12.009870      0.050 
   0.761945  -12.018230      0.050 
   0.795809  -12.030170      0.050 
   0.829673  -12.045710      0.050 
   0.863537  -12.064830      0.050 
   0.897401  -12.087470      0.050 
   0.931266  -12.113460      0.050 
   0.965130  -12.142640      0.050 
   0.998994  -12.174760      0.050 
   1.032858  -12.209560      0.050 
   1.066723  -12.246740      0.050 
   1.100587  -12.285990      0.050 
   1.134451  -12.326980      0.050 
   1.168315  -12.369370      0.050 
   1.202179  -12.412840      0.050 
   1.236044  -12.457040      0.050 
   1.269908  -12.501650      0.050 
   1.303772  -12.546340      0.050 
   1.337636  -12.590820      0.050 
   1.371500  -12.634800      0.050 
   1.405365  -12.677980      0.050 
   1.439229  -12.720100      0.050 
   1.473093  -12.760910      0.050 
   1.506957  -12.800190      0.050 
   1.540821  -12.837690      0.050 
   1.574686  -12.873230      0.050 
   1.608550  -12.906610      0.050 
